**** COMMENT ****

**** INPUTS ****
kVp [kV] hvMIN [keV] Dhv [keV]
120  12  0.5
Angle [deg.]
17
t_AIR t_BE t_AL t_CU t_SN t_W t_Ta t_Wa [mm]
0  0  1  0  0  0  0  0
Nf P
0.68  0.33
****CALCULATED OUTPUTS ****
Brem[uGy/mAs@1m] Char[uGy/mAs@1m]
231.4339  9.56143
HVL1[cm AL] HVL2[cm AL] HVL1[cmCu] HVL2[cmCu] MeanE[keV] EffEAl[keV] EffECu[keV]
0.217114  0.4384012  0.0073292  0.0191116  49.02511  29.47574  30.36306
**** CALCULATED SPECTRUM ****
Energy[keV]  N[keV cm^2 mAs]^-1 @ 1 meter
12  156267.2
12.5  234113.8
13  351442.9
13.5  498096.7
14  712055.4
14.5  928846.8
15  1.218769e+6
15.5  1.505930e+6
16  1.871807e+6
16.5  2.203789e+6
17  2.607549e+6
17.5  2.961094e+6
18  3.374380e+6
18.5  3.738225e+6
19  4.153174e+6
19.5  4.507612e+6
20  4.900546e+6
20.5  5.228543e+6
21  5.589129e+6
21.5  5.883693e+6
22  6.205194e+6
22.5  6.458125e+6
23  6.730058e+6
23.5  6.942740e+6
24  7.169971e+6
24.5  7.332941e+6
25  7.503140e+6
25.5  7.639894e+6
26  7.785448e+6
26.5  7.885871e+6
27  7.987933e+6
27.5  8.054182e+6
28  8.126024e+6
28.5  8.165208e+6
29  8.211493e+6
29.5  8.218986e+6
30  8.230611e+6
30.5  8.223995e+6
31  8.221147e+6
31.5  8.197935e+6
32  8.174144e+6
32.5  8.135970e+6
33  8.101095e+6
33.5  8.053969e+6
34  8.011021e+6
34.5  7.949045e+6
35  7.890165e+6
35.5  7.817888e+6
36  7.748644e+6
36.5  7.676583e+6
37  7.604800e+6
37.5  7.526382e+6
38  7.450809e+6
38.5  7.369711e+6
39  7.287372e+6
39.5  7.200647e+6
40  7.116689e+6
40.5  7.031582e+6
41  6.950513e+6
41.5  6.861856e+6
42  6.775827e+6
42.5  6.687611e+6
43  6.601926e+6
43.5  6.515950e+6
44  6.429721e+6
44.5  6.341869e+6
45  6.256414e+6
45.5  6.171091e+6
46  6.088447e+6
46.5  6.002505e+6
47  5.918814e+6
47.5  5.834450e+6
48  5.753905e+6
48.5  5.671497e+6
49  5.591172e+6
49.5  5.510176e+6
50  5.431193e+6
50.5  5.353874e+6
51  5.275855e+6
51.5  5.198284e+6
52  5.122586e+6
52.5  5.047975e+6
53  4.975954e+6
53.5  4.902123e+6
54  4.830028e+6
54.5  4.758630e+6
55  4.688884e+6
55.5  4.619924e+6
56  4.550809e+6
56.5  4.482633e+6
57  4.416002e+6
57.5  4.350866e+6
58  2.314281e+7
58.5  4.222617e+6
59  4.159359e+6
59.5  3.688059e+7
60  4.035878e+6
60.5  3.975514e+6
61  3.915427e+6
61.5  3.856633e+6
62  3.799094e+6
62.5  3.742496e+6
63  3.685239e+6
63.5  3.629684e+6
64  3.575291e+6
64.5  3.520835e+6
65  3.467976e+6
65.5  3.415140e+6
66  3.363389e+6
66.5  3.312023e+6
67  1.389838e+7
67.5  3.212422e+6
68  3.162922e+6
68.5  3.114419e+6
69  5.830505e+6
69.5  3.019092e+6
70  2.667835e+6
70.5  2.632186e+6
71  2.597167e+6
71.5  2.561532e+6
72  2.526534e+6
72.5  2.493327e+6
73  2.460080e+6
73.5  2.426361e+6
74  2.393225e+6
74.5  2.360920e+6
75  2.327850e+6
75.5  2.294757e+6
76  2.262232e+6
76.5  2.230295e+6
77  2.199132e+6
77.5  2.167454e+6
78  2.136310e+6
78.5  2.105026e+6
79  2.074271e+6
79.5  2.044065e+6
80  2.013506e+6
80.5  1.983340e+6
81  1.953676e+6
81.5  1.924538e+6
82  1.895739e+6
82.5  1.866391e+6
83  1.837529e+6
83.5  1.808897e+6
84  1.781226e+6
84.5  1.752686e+6
85  1.724615e+6
85.5  1.696908e+6
86  1.669654e+6
86.5  1.643140e+6
87  1.615914e+6
87.5  1.589041e+6
88  1.562602e+6
88.5  1.536298e+6
89  1.510519e+6
89.5  1.484390e+6
90  1.458679e+6
90.5  1.433109e+6
91  1.407951e+6
91.5  1.383213e+6
92  1.358090e+6
92.5  1.333188e+6
93  1.308683e+6
93.5  1.284503e+6
94  1.260409e+6
94.5  1.236274e+6
95  1.212519e+6
95.5  1.188917e+6
96  1.165690e+6
96.5  1.142291e+6
97  1.118861e+6
97.5  1.095749e+6
98  1.073002e+6
98.5  1.050798e+6
99  1.027705e+6
99.5  1.005065e+6
100  982779.5
100.5  960709.9
101  938937.2
101.5  916467.6
102  894350.1
102.5  872541
103  851072.7
103.5  829588.9
104  807574.2
104.5  785903.3
105  764569.4
105.5  743537.5
106  722135.3
106.5  700421.3
107  679045.8
107.5  657913.5
108  637112.3
108.5  615579.1
109  594001.3
109.5  572739.4
110  551807.9
110.5  531242.3
111  509229.9
111.5  487560.7
112  466228.1
112.5  445213.9
113  423580
113.5  399764.9
114  376328.5
114.5  353311.2
115  330652.4
115.5  308197
116  285317.6
116.5  262796.3
117  240626.5
117.5  218769.1
118  178220.3
118.5  132583.7
119  87677.13
119.5  43486.96
120  0
