**** COMMENT ****

**** INPUTS ****
kVp [kV] hvMIN [keV] Dhv [keV]
60  6  0.5
Angle [deg.]
17
t_AIR t_BE t_AL t_CU t_SN t_W t_Ta t_Wa [mm]
0  0  1  0  0  0  0  0
Nf P
0.68  0.33
****CALCULATED OUTPUTS ****
Brem[uGy/mAs@1m] Char[uGy/mAs@1m]
111.9836  0
HVL1[cm AL] HVL2[cm AL] HVL1[cmCu] HVL2[cmCu] MeanE[keV] EffEAl[keV] EffECu[keV]
0.1091542  0.1764545  0.0034168  0.0056412  31.77585  22.8648  23.13809
**** CALCULATED SPECTRUM ****
Energy[keV]  N[keV cm^2 mAs]^-1 @ 1 meter
6  6.621394e-7
6.5  0.0001721
7  0.0458421
7.5  1.15672
8  29.58098
8.5  212.5578
9  1540.118
9.5  5464.34
10  19524.74
10.5  35349.02
11  65927.24
11.5  109905.9
12  183846.3
12.5  272323.4
13  403985.6
13.5  557307.1
14  771393.7
14.5  976971.9
15  1.240215e+6
15.5  1.484015e+6
16  1.781128e+6
16.5  2.031817e+6
17  2.324188e+6
17.5  2.560781e+6
18  2.825426e+6
18.5  3.040590e+6
19  3.273867e+6
19.5  3.455135e+6
20  3.647622e+6
20.5  3.791049e+6
21  3.940951e+6
21.5  4.044341e+6
22  4.155555e+6
22.5  4.223878e+6
23  4.299616e+6
23.5  4.338053e+6
24  4.381348e+6
24.5  4.387190e+6
25  4.394775e+6
25.5  4.390124e+6
26  4.384637e+6
26.5  4.359546e+6
27  4.333671e+6
27.5  4.293508e+6
28  4.257074e+6
28.5  4.204652e+6
29  4.157470e+6
29.5  4.094688e+6
30  4.033827e+6
30.5  3.968663e+6
31  3.903169e+6
31.5  3.835079e+6
32  3.766501e+6
32.5  3.694755e+6
33  3.622613e+6
33.5  3.547086e+6
34  3.475127e+6
34.5  3.397541e+6
35  3.324800e+6
35.5  3.247417e+6
36  3.172031e+6
36.5  3.096819e+6
37  3.021670e+6
37.5  2.947939e+6
38  2.873902e+6
38.5  2.800254e+6
39  2.726388e+6
39.5  2.652933e+6
40  2.582338e+6
40.5  2.509758e+6
41  2.441272e+6
41.5  2.370590e+6
42  2.303006e+6
42.5  2.233495e+6
43  2.165443e+6
43.5  2.099709e+6
44  2.033625e+6
44.5  1.969172e+6
45  1.904093e+6
45.5  1.840056e+6
46  1.778095e+6
46.5  1.714812e+6
47  1.654870e+6
47.5  1.593292e+6
48  1.533096e+6
48.5  1.473883e+6
49  1.414564e+6
49.5  1.357005e+6
50  1.298698e+6
50.5  1.242054e+6
51  1.184103e+6
51.5  1.127104e+6
52  1.071114e+6
52.5  1.014026e+6
53  959533.4
53.5  902874.4
54  847376.4
54.5  791108.9
55  734551.7
55.5  679045.2
56  621942.3
56.5  565484.4
57  502652.6
57.5  440982.8
58  381475.3
58.5  319740.7
59  238821
59.5  117530.6
60  0
