**** COMMENT ****

**** INPUTS ****
kVp [kV] hvMIN [keV] Dhv [keV]
60  6  0.5
Angle [deg.]
17
t_AIR t_BE t_AL t_CU t_SN t_W t_Ta t_Wa [mm]
0  0  3  0  0  0  0  0
Nf P
0.68  0.33
****CALCULATED OUTPUTS ****
Brem[uGy/mAs@1m] Char[uGy/mAs@1m]
37.79839  0
HVL1[cm AL] HVL2[cm AL] HVL1[cmCu] HVL2[cmCu] MeanE[keV] EffEAl[keV] EffECu[keV]
0.2202868  0.3017406  0.007098  0.0104256  36.60487  29.64605  30.0012
**** CALCULATED SPECTRUM ****
Energy[keV]  N[keV cm^2 mAs]^-1 @ 1 meter
6  7.100061e-34
6.5  1.153222e-26
7  1.920460e-19
7.5  2.993266e-15
8  4.728310e-11
8.5  1.750488e-8
9  6.534690e-6
9.5  0.0003014
10  0.0140019
10.5  0.1427053
11  1.498264
11.5  8.418066
12  47.45848
12.5  166.7917
13  587.0645
13.5  1531.605
14  4009.229
14.5  8210.862
15  16854.88
15.5  29274.2
16  50998.8
16.5  77663.54
17  118596.4
17.5  163934.6
18  226923.8
18.5  293420.5
19  379603.5
19.5  464757.9
20  569199.4
20.5  668006.6
21  784132
21.5  889246
22  1.009693e+6
22.5  1.115892e+6
23  1.235068e+6
23.5  1.336729e+6
24  1.448251e+6
24.5  1.534783e+6
25  1.627128e+6
25.5  1.710965e+6
26  1.798777e+6
26.5  1.867439e+6
27  1.938307e+6
27.5  1.994322e+6
28  2.053575e+6
28.5  2.095080e+6
29  2.139788e+6
29.5  2.165152e+6
30  2.191345e+6
30.5  2.208976e+6
31  2.225961e+6
31.5  2.236093e+6
32  2.245271e+6
32.5  2.245132e+6
33  2.243900e+6
33.5  2.234207e+6
34  2.225832e+6
34.5  2.208696e+6
35  2.193744e+6
35.5  2.171808e+6
36  2.150224e+6
36.5  2.124328e+6
37  2.097549e+6
37.5  2.068588e+6
38  2.038534e+6
38.5  2.005153e+6
39  1.970796e+6
39.5  1.934862e+6
40  1.900231e+6
40.5  1.861340e+6
41  1.824780e+6
41.5  1.784429e+6
42  1.745769e+6
42.5  1.704084e+6
43  1.662903e+6
43.5  1.622030e+6
44  1.580340e+6
44.5  1.538539e+6
45  1.495747e+6
45.5  1.452878e+6
46  1.411175e+6
46.5  1.367212e+6
47  1.325491e+6
47.5  1.281348e+6
48  1.237940e+6
48.5  1.194957e+6
49  1.151518e+6
49.5  1.108547e+6
50  1.064646e+6
50.5  1.021515e+6
51  977013.7
51.5  932750
52  889050.8
52.5  844170.1
53  801181.2
53.5  755910.8
54  711364.5
54.5  665744.3
55  619653.5
55.5  574067.9
56  526929.8
56.5  480132.8
57  427707.4
57.5  376043.9
58  326002.8
58.5  273762.3
59  204865.6
59.5  100983.6
60  0
