**** COMMENT ****

**** INPUTS ****
kVp [kV] hvMIN [keV] Dhv [keV]
120  12  0.5
Angle [deg.]
17
t_AIR t_BE t_AL t_CU t_SN t_W t_Ta t_Wa [mm]
0  0  3  0  0  0  0  0
Nf P
0.68  0.33
****CALCULATED OUTPUTS ****
Brem[uGy/mAs@1m] Char[uGy/mAs@1m]
116.982  8.232929
HVL1[cm AL] HVL2[cm AL] HVL1[cmCu] HVL2[cmCu] MeanE[keV] EffEAl[keV] EffECu[keV]
0.4245782  0.6717901  0.0166996  0.0373405  54.78937  38.89572  40.71107
**** CALCULATED SPECTRUM ****
Energy[keV]  N[keV cm^2 mAs]^-1 @ 1 meter
12  40.33915
12.5  143.3892
13  510.7103
13.5  1368.882
14  3700.825
14.5  7806.399
15  16563.42
15.5  29706.51
16  53595.19
16.5  84236.93
17  133055.4
17.5  189561.6
18  271013.1
18.5  360743.2
19  481558.7
19.5  606329
20  764714
20.5  921302.1
21  1.112070e+6
21.5  1.293672e+6
22  1.507702e+6
22.5  1.706149e+6
23  1.933214e+6
23.5  2.139338e+6
24  2.370027e+6
24.5  2.565303e+6
25  2.777973e+6
25.5  2.977499e+6
26  3.193943e+6
26.5  3.377962e+6
27  3.572737e+6
27.5  3.741144e+6
28  3.919922e+6
28.5  4.068532e+6
29  4.226333e+6
29.5  4.345961e+6
30  4.471215e+6
30.5  4.577514e+6
31  4.688486e+6
31.5  4.779913e+6
32  4.872738e+6
32.5  4.943853e+6
33  5.017939e+6
33.5  5.072962e+6
34  5.131090e+6
34.5  5.167566e+6
35  5.206027e+6
35.5  5.228448e+6
36  5.252572e+6
36.5  5.265913e+6
37  5.279016e+6
37.5  5.281311e+6
38  5.285053e+6
38.5  5.277162e+6
39  5.267748e+6
39.5  5.251643e+6
40  5.236862e+6
40.5  5.214909e+6
41  5.195306e+6
41.5  5.165170e+6
42  5.136343e+6
42.5  5.102429e+6
43  5.069800e+6
43.5  5.033588e+6
44  4.996567e+6
44.5  4.954982e+6
45  4.914683e+6
45.5  4.872590e+6
46  4.832061e+6
46.5  4.785770e+6
47  4.740754e+6
47.5  4.692146e+6
48  4.646150e+6
48.5  4.598192e+6
49  4.551464e+6
49.5  4.501302e+6
50  4.452380e+6
50.5  4.403239e+6
51  4.353155e+6
51.5  4.301908e+6
52  4.251872e+6
52.5  4.202406e+6
53  4.154770e+6
53.5  4.104190e+6
54  4.054763e+6
54.5  4.004544e+6
55  3.955451e+6
55.5  3.905705e+6
56  3.855593e+6
56.5  3.806045e+6
57  3.757579e+6
57.5  3.710160e+6
58  1.977748e+7
58.5  3.615409e+6
59  3.567985e+6
59.5  3.164264e+7
60  3.473296e+6
60.5  3.426893e+6
61  3.380570e+6
61.5  3.335206e+6
62  3.290773e+6
62.5  3.246128e+6
63  3.200783e+6
63.5  3.157642e+6
64  3.115366e+6
64.5  3.071230e+6
65  3.028390e+6
65.5  2.986280e+6
66  2.945001e+6
66.5  2.903158e+6
67  1.219581e+7
67.5  2.821941e+6
68  2.781461e+6
68.5  2.741767e+6
69  5.138409e+6
69.5  2.663594e+6
70  2.356240e+6
70.5  2.326639e+6
71  2.297545e+6
71.5  2.268470e+6
72  2.239894e+6
72.5  2.212245e+6
73  2.184515e+6
73.5  2.156319e+6
74  2.128594e+6
74.5  2.101563e+6
75  2.073805e+6
75.5  2.045428e+6
76  2.017526e+6
76.5  1.990655e+6
77  1.964431e+6
77.5  1.937703e+6
78  1.911407e+6
78.5  1.884435e+6
79  1.857906e+6
79.5  1.831839e+6
80  1.805427e+6
80.5  1.779339e+6
81  1.753673e+6
81.5  1.728918e+6
82  1.704427e+6
82.5  1.678947e+6
83  1.653876e+6
83.5  1.628545e+6
84  1.604066e+6
84.5  1.579217e+6
85  1.554764e+6
85.5  1.530612e+6
86  1.506842e+6
86.5  1.483715e+6
87  1.459918e+6
87.5  1.436415e+6
88  1.413279e+6
88.5  1.389863e+6
89  1.366911e+6
89.5  1.343991e+6
90  1.321426e+6
90.5  1.298613e+6
91  1.276159e+6
91.5  1.254415e+6
92  1.232297e+6
92.5  1.210027e+6
93  1.188107e+6
93.5  1.166470e+6
94  1.144899e+6
94.5  1.123582e+6
95  1.102588e+6
95.5  1.081418e+6
96  1.060577e+6
96.5  1.039568e+6
97  1.018520e+6
97.5  997750.3
98  977301.5
98.5  957336.4
99  936550.1
99.5  916413.7
100  896577.6
100.5  876680.4
101  857043.4
101.5  836759.5
102  816786.1
102.5  797083.6
103  777681.9
103.5  758255.4
104  738333
104.5  718714.1
105  699393
105.5  680337.6
106  660933
106.5  641232.4
107  621831.2
107.5  602479.4
108  583430.9
108.5  563864.2
109  544246.1
109.5  524906.9
110  505860
110.5  487138.4
111  467079.5
111.5  447324.7
112  427868.1
112.5  408693.2
113  388938.9
113.5  367071.5
114  345551.7
114.5  324504.5
115  303775.1
115.5  283221.5
116  262267
116.5  241630.4
117  221305.9
117.5  201203.5
118  163910.5
118.5  121971.1
119  80680.84
119.5  40027.67
120  0
